PLANTILLA_CURVAS;Unnamed: 1;Unnamed: 2;Unnamed: 3;Unnamed: 4;Unnamed: 5;Unnamed: 6;Unnamed: 7
Equipo;BPC;;;;;;
Producto ;Oleoducto;;;;;;
Vicosidad (cSt);75.0;;;;;;
Densidad (kg/m³);915.8576051779935;;;;;;
RPM bomba;3587;;;;;;
Pnom motor (hp);2500;;;;;;
Modelo Bomba;Sultzer 8x10x13B MSD;;;;;;
Stages ;3;;;;;;
Diametro (in);12.750000000000002;;;;;;
BLS/h;BLS/día;DP (m);DP (psi);Ph (kW);EFFb (%);Peje (kW);NPSHr (m)
0.0;0.0;661.108545336122;848.5704047578961;0.0;0.0;;0.0
1682.7595158529705;40386.22838047129;643.8460848589988;826.4130552915659;425.9110976240895;0.5475237612062873;777.8860531746337;15.09721657
1835.737653657786;44057.70368778687;643.6506228539998;826.1621686953074;464.4892335373686;0.5716923387703378;812.4811232147101;18.54227189
1988.7157914626016;47729.17899510244;642.8931336513028;825.1898882371786;502.6044756543675;0.5945272977757091;845.3850269529249;21.45752446
2141.693929267417;51400.65430241801;641.5737068143678;823.4963288769723;540.155502919145;0.6160286400561563;876.8350492111944;23.89658806
2294.6720670722325;55072.12960973358;639.6924679872728;821.0816518860061;577.0410483670784;0.6361963637779243;907.017206040657;25.91307648
2447.650204877048;58743.60491704915;637.2495697685218;817.9460531331357;613.1599011926271;0.6550304689410131;936.0784425553851;27.56060349
2600.628342681863;62415.08022436472;634.2451857538853;814.0897554384022;648.4109087639582;0.6725309573791779;964.1354076707273;28.89278289
2753.6064804866787;66086.5555316803;630.6795054760523;809.5130020777879;682.6929774588605;0.6886978272586634;991.2808643179477;29.96322845
2906.584618291494;69758.03083899585;626.5527309216378;804.2160523125966;715.9050734770624;0.7035310794963473;1017.5884112889136;30.82555396
3059.56275609631;73429.50614631144;621.8650738172101;798.1991779059165;747.946223320741;0.7170307140922295;1043.1160180741363;31.53337321
3212.540893901125;77100.981453627;616.6167535342424;791.4626604335056;778.7155140773923;0.7291967301294325;1067.9086752612977;32.14029997
3365.519031705941;80772.45676094259;610.8079954532392;784.006789184055;808.1120935542579;0.7400291285248339;1092.00038539718;32.69994803
3518.497169510756;84443.93206825815;604.4390296734672;775.8318595030561;836.0351703005116;0.7495279092784337;1115.415663581304;33.26593117
3671.475307315572;88115.40737557373;597.5100899861935;766.938171474892;862.3840135442091;0.7576930723902318;1138.1706458311905;33.89186318
3824.4534451203867;91786.88268288928;590.0214129725013;757.3260287648335;887.0579529460471;0.7645246169433506;1160.2738921509128;34.63135783
3977.431582925203;95458.35799020488;581.973237652958;746.9957381693685;909.9563788904586;0.770022543854668;1181.7269327405581;35.53802892
4130.409720730019;99129.83329752047;573.3658043964564;735.9476082156365;930.9787414474056;0.7741868531241836;1202.5246071933384;36.66549023
4283.387858534834;102801.30860483601;564.1993551081638;724.1819494026734;950.0245510942829;0.7770175447518974;1222.6552122418636;38.06735554
4436.3659963396485;106472.78391215156;554.474132316652;711.6990730296897;966.9933775858253;0.7785146178209322;1242.1004762793618;39.79723863
4487.358708941253;107696.60901459007;551.1082614358203;707.3787863901364;972.1707513962247;0.7787172825994461;1248.4258062836477;40.45602575
4589.344134144465;110144.25921946716;544.1903791114884;698.4992911159659;981.7848500289637;0.7786780732481654;1260.8353615680508;41.90875329
4742.322271949281;113815.73452678273;533.348339053714;684.5829162859455;994.2986568846148;0.777507911033597;1278.8277042259576;44.4555133
4895.300409754096;117487.2098340983;521.9482558140869;669.9502613049006;1004.4345454132889;0.7750041302603492;1296.037667664902;47.49113245
5048.278547558911;121158.68514141385;509.9903727676126;654.6016385584871;1012.0923209034089;0.7711667327621773;1312.4169883188301;51.06922451
5201.256685363726;124830.16044872944;497.4749333237761;638.5373604766182;1017.1718472575989;0.7659957167053263;1327.9080092413865;55.24340327
5354.234823168541;128501.63575604498;484.402180494668;621.7577389791285;1019.5730460940397;0.7594910820897962;1342.4424198485763;60.06728252
5507.212960973357;132173.1110633606;470.77235687572306;604.2630854510509;1019.1958965852787;0.7516528307493417;1355.9396770570484;65.59447604
5660.191098778172;135844.58637067612;456.58570456433256;586.0537106381514;1015.9404351518509;0.7424809608502083;1368.3050323452155;71.87859761
5813.169236582988;139516.0616779917;441.84246509225585;567.1299245601753;1009.7067551580719;0.7319754733092732;1379.427032702573;78.97326101
